     t [s]      T [K]   vol [m3]       u [J/kg]
 4.050e-01   1001.116      2.970   2.870653e+05
 4.100e-01   1001.144      2.970   2.870653e+05
 4.150e-01   1001.172      2.970   2.870653e+05
 4.200e-01   1001.201      2.970   2.870653e+05
 4.250e-01   1001.231      2.970   2.870653e+05
 4.300e-01   1001.261      2.970   2.870653e+05
 4.350e-01   1001.291      2.970   2.870653e+05
 4.400e-01   1001.322      2.970   2.870653e+05
 4.450e-01   1001.354      2.970   2.870653e+05
 4.500e-01   1001.387      2.970   2.870653e+05
 4.550e-01   1001.420      2.970   2.870653e+05
 4.600e-01   1001.453      2.970   2.870653e+05
 4.650e-01   1001.488      2.970   2.870653e+05
 4.700e-01   1001.523      2.970   2.870653e+05
 4.750e-01   1001.558      2.970   2.870653e+05
 4.800e-01   1001.595      2.970   2.870653e+05
 4.850e-01   1001.632      2.970   2.870653e+05
 4.900e-01   1001.670      2.970   2.870653e+05
 4.950e-01   1001.708      2.970   2.870653e+05
 5.000e-01   1001.748      2.970   2.870653e+05
 5.050e-01   1001.788      2.970   2.870653e+05
 5.100e-01   1001.829      2.970   2.870653e+05
 5.150e-01   1001.871      2.970   2.870653e+05
 5.200e-01   1001.913      2.970   2.870653e+05
 5.250e-01   1001.957      2.970   2.870653e+05
 5.300e-01   1002.001      2.970   2.870653e+05
 5.350e-01   1002.047      2.970   2.870653e+05
 5.400e-01   1002.093      2.970   2.870653e+05
 5.450e-01   1002.140      2.970   2.870653e+05
 5.500e-01   1002.188      2.970   2.870653e+05
 5.550e-01   1002.238      2.970   2.870653e+05
 5.600e-01   1002.288      2.970   2.870653e+05
 5.650e-01   1002.339      2.970   2.870653e+05
 5.700e-01   1002.391      2.970   2.870653e+05
 5.750e-01   1002.445      2.970   2.870653e+05
 5.800e-01   1002.500      2.970   2.870653e+05
 5.850e-01   1002.555      2.970   2.870653e+05
 5.900e-01   1002.612      2.970   2.870653e+05
 5.950e-01   1002.671      2.970   2.870653e+05
 6.000e-01   1002.730      2.970   2.870653e+05
 6.050e-01   1002.791      2.970   2.870653e+05
 6.100e-01   1002.853      2.970   2.870653e+05
 6.150e-01   1002.917      2.970   2.870653e+05
 6.200e-01   1002.982      2.970   2.870653e+05
 6.250e-01   1003.048      2.970   2.870653e+05
 6.300e-01   1003.116      2.970   2.870653e+05
 6.350e-01   1003.185      2.970   2.870653e+05
 6.400e-01   1003.256      2.970   2.870653e+05
 6.450e-01   1003.329      2.970   2.870653e+05
 6.500e-01   1003.403      2.970   2.870653e+05
 6.550e-01   1003.480      2.970   2.870653e+05
 6.600e-01   1003.557      2.970   2.870653e+05
 6.650e-01   1003.637      2.970   2.870653e+05
 6.700e-01   1003.719      2.970   2.870653e+05
 6.750e-01   1003.802      2.970   2.870653e+05
 6.800e-01   1003.888      2.970   2.870653e+05
 6.850e-01   1003.976      2.970   2.870653e+05
 6.900e-01   1004.066      2.970   2.870653e+05
 6.950e-01   1004.158      2.970   2.870653e+05
 7.000e-01   1004.252      2.970   2.870653e+05
 7.050e-01   1004.349      2.970   2.870653e+05
 7.100e-01   1004.448      2.970   2.870653e+05
 7.150e-01   1004.550      2.970   2.870653e+05
 7.200e-01   1004.655      2.970   2.870653e+05
 7.250e-01   1004.762      2.970   2.870653e+05
 7.300e-01   1004.872      2.970   2.870653e+05
 7.350e-01   1004.985      2.970   2.870653e+05
 7.400e-01   1005.101      2.970   2.870653e+05
 7.450e-01   1005.220      2.970   2.870653e+05
 7.500e-01   1005.343      2.970   2.870653e+05
 7.550e-01   1005.469      2.970   2.870653e+05
 7.600e-01   1005.599      2.970   2.870653e+05
 7.650e-01   1005.732      2.970   2.870653e+05
 7.700e-01   1005.869      2.970   2.870653e+05
 7.750e-01   1006.010      2.970   2.870653e+05
 7.800e-01   1006.155      2.970   2.870653e+05
 7.850e-01   1006.305      2.970   2.870653e+05
 7.900e-01   1006.459      2.970   2.870653e+05
 7.950e-01   1006.618      2.970   2.870653e+05
 8.000e-01   1006.782      2.970   2.870653e+05
 8.050e-01   1006.951      2.970   2.870653e+05
 8.100e-01   1007.126      2.970   2.870653e+05
 8.150e-01   1007.306      2.970   2.870653e+05
 8.200e-01   1007.492      2.970   2.870653e+05
 8.250e-01   1007.685      2.970   2.870653e+05
 8.300e-01   1007.884      2.970   2.870653e+05
 8.350e-01   1008.090      2.970   2.870653e+05
 8.400e-01   1008.303      2.970   2.870653e+05
 8.450e-01   1008.524      2.970   2.870653e+05
 8.500e-01   1008.754      2.970   2.870653e+05
 8.550e-01   1008.991      2.970   2.870653e+05
 8.600e-01   1009.238      2.970   2.870653e+05
 8.650e-01   1009.494      2.970   2.870653e+05
 8.700e-01   1009.761      2.970   2.870653e+05
 8.750e-01   1010.038      2.970   2.870653e+05
 8.800e-01   1010.326      2.970   2.870653e+05
 8.850e-01   1010.627      2.970   2.870653e+05
 8.900e-01   1010.941      2.970   2.870653e+05
 8.950e-01   1011.269      2.970   2.870653e+05
 9.000e-01   1011.611      2.970   2.870653e+05
 9.050e-01   1011.970      2.970   2.870653e+05
 9.100e-01   1012.345      2.970   2.870653e+05
 9.150e-01   1012.740      2.970   2.870653e+05
 9.200e-01   1013.154      2.970   2.870653e+05
 9.250e-01   1013.589      2.970   2.870653e+05
 9.300e-01   1014.048      2.970   2.870653e+05
 9.350e-01   1014.533      2.970   2.870653e+05
 9.400e-01   1015.045      2.970   2.870653e+05
 9.450e-01   1015.588      2.970   2.870653e+05
 9.500e-01   1016.164      2.970   2.870653e+05
 9.550e-01   1016.777      2.970   2.870653e+05
 9.600e-01   1017.431      2.970   2.870653e+05
 9.650e-01   1018.131      2.970   2.870653e+05
 9.700e-01   1018.882      2.970   2.870653e+05
 9.750e-01   1019.690      2.970   2.870653e+05
 9.800e-01   1020.564      2.970   2.870653e+05
 9.850e-01   1021.511      2.970   2.870653e+05
 9.900e-01   1022.545      2.970   2.870653e+05
 9.950e-01   1023.677      2.970   2.870653e+05
 1.000e+00   1024.925      2.970   2.870653e+05
 1.005e+00   1026.311      2.970   2.870653e+05
 1.010e+00   1027.862      2.970   2.870653e+05
 1.015e+00   1029.615      2.970   2.870653e+05
 1.020e+00   1031.619      2.970   2.870653e+05
 1.025e+00   1033.941      2.970   2.870653e+05
 1.030e+00   1036.680      2.970   2.870653e+05
 1.035e+00   1039.982      2.970   2.870653e+05
 1.040e+00   1044.083      2.970   2.870653e+05
 1.045e+00   1049.388      2.970   2.870653e+05
 1.050e+00   1056.675      2.970   2.870653e+05
 1.055e+00   1067.720      2.970   2.870653e+05
 1.060e+00   1087.991      2.970   2.870653e+05
 1.065e+00   1155.231      2.970   2.870653e+05
 1.070e+00   2768.317      2.970   2.870653e+05
 1.075e+00   2768.160      2.970   2.870653e+05
 1.080e+00   2768.160      2.970   2.870653e+05
 1.085e+00   2768.160      2.970   2.870653e+05
 1.090e+00   2768.160      2.970   2.870653e+05
 1.095e+00   2768.160      2.970   2.870653e+05
 1.100e+00   2768.160      2.970   2.870653e+05
 1.105e+00   2768.160      2.970   2.870653e+05
 1.110e+00   2768.160      2.970   2.870653e+05
 1.115e+00   2768.160      2.970   2.870653e+05
 1.120e+00   2768.160      2.970   2.870653e+05
 1.125e+00   2768.160      2.970   2.870653e+05
 1.130e+00   2768.160      2.970   2.870653e+05
 1.135e+00   2768.160      2.970   2.870653e+05
 1.140e+00   2768.160      2.970   2.870653e+05
 1.145e+00   2768.160      2.970   2.870653e+05
 1.150e+00   2768.160      2.970   2.870653e+05
 1.155e+00   2768.160      2.970   2.870653e+05
 1.160e+00   2768.160      2.970   2.870653e+05
 1.165e+00   2768.160      2.970   2.870653e+05
 1.170e+00   2768.160      2.970   2.870653e+05
 1.175e+00   2768.160      2.970   2.870653e+05
 1.180e+00   2768.160      2.970   2.870653e+05
 1.185e+00   2768.160      2.970   2.870653e+05
 1.190e+00   2768.160      2.970   2.870653e+05
 1.195e+00   2768.160      2.970   2.870653e+05
 1.200e+00   2768.160      2.970   2.870653e+05
 1.205e+00   2768.160      2.970   2.870653e+05
 1.210e+00   2768.160      2.970   2.870653e+05
 1.215e+00   2768.160      2.970   2.870653e+05
 1.220e+00   2768.160      2.970   2.870653e+05
 1.225e+00   2768.160      2.970   2.870653e+05
 1.230e+00   2768.160      2.970   2.870653e+05
 1.235e+00   2768.160      2.970   2.870653e+05
 1.240e+00   2768.160      2.970   2.870653e+05
 1.245e+00   2768.160      2.970   2.870653e+05
 1.250e+00   2768.160      2.970   2.870653e+05
 1.255e+00   2768.160      2.970   2.870653e+05
 1.260e+00   2768.160      2.970   2.870653e+05
 1.265e+00   2768.160      2.970   2.870653e+05
 1.270e+00   2768.160      2.970   2.870653e+05
 1.275e+00   2768.160      2.970   2.870653e+05
 1.280e+00   2768.160      2.970   2.870653e+05
 1.285e+00   2768.160      2.970   2.870653e+05
 1.290e+00   2768.160      2.970   2.870653e+05
 1.295e+00   2768.160      2.970   2.870653e+05
 1.300e+00   2768.160      2.970   2.870653e+05
 1.305e+00   2768.160      2.970   2.870653e+05
 1.310e+00   2768.160      2.970   2.870653e+05
 1.315e+00   2768.160      2.970   2.870653e+05
 1.320e+00   2768.160      2.970   2.870653e+05
 1.325e+00   2768.160      2.970   2.870653e+05
 1.330e+00   2768.160      2.970   2.870653e+05
 1.335e+00   2768.160      2.970   2.870653e+05
 1.340e+00   2768.160      2.970   2.870653e+05
 1.345e+00   2768.160      2.970   2.870653e+05
 1.350e+00   2768.160      2.970   2.870653e+05
 1.355e+00   2768.160      2.970   2.870653e+05
 1.360e+00   2768.160      2.970   2.870653e+05
 1.365e+00   2768.160      2.970   2.870653e+05
 1.370e+00   2768.160      2.970   2.870653e+05
 1.375e+00   2768.160      2.970   2.870653e+05
 1.380e+00   2768.160      2.970   2.870653e+05
 1.385e+00   2768.160      2.970   2.870653e+05
 1.390e+00   2768.160      2.970   2.870653e+05
 1.395e+00   2768.160      2.970   2.870653e+05
 1.400e+00   2768.160      2.970   2.870653e+05
